"Time","damper.phi_rel","damper.w_rel","cutForce_inFrameA.force[1]","cutForce_inFrameA.force[2]","cutForce_inWorld.force[1]","cutForce_inWorld.force[2]","cutForce_inFrameResolve.force[1]","cutForce_inFrameResolve.force[2]"
0,0,0,0,0.89181818181818251,0,0.89181818181818251,0,0.89181818181818251
0.00059999999999999995,-1.6052376823881135e-06,-0.0053507631602079395,-4.2945687068906031e-05,0.89230461490168622,-4.2945687068906031e-05,0.89230461490168622,-4.2945687068906031e-05,0.89230461490168622
0.0011999999999999999,-6.4208225597092247e-06,-0.010701234470594971,-0.00017177223577069471,0.89279102241844832,-0.00017177223577069471,0.89279102241844832,-0.00017177223577069471,0.89279102241844832
0.0018,-1.4446574374999691e-05,-0.016051413947280248,-0.00038646398586595504,0.89327740685116908,-0.00038646398586595504,0.89327740685116908,-0.00038646398586595504,0.89327740685116908
0.0023999999999999998,-2.5682349869678357e-05,-0.021401301602730689,-0.00068700560881201412,0.89376377233571702,-0.00068700560881201412,0.89376377233571702,-0.00068700560881201412,0.89376377233571702
0.0029999999999999996,-4.0127969294096935e-05,-0.026750897452186818,-0.0010733814524970531,0.89425012466113962,-0.0010733814524970531,0.89425012466113962,-0.0010733814524970531,0.89425012466113962
0.0035999999999999999,-5.7783258533801076e-05,-0.032100201509730711,-0.0015455759166365566,0.89473647126871469,-0.0015455759166365566,0.89473647126871469,-0.0015455759166365566,0.89473647126871469
0.0041999999999999997,-7.8648055027015344e-05,-0.037449213787673699,-0.0021035735052057285,0.89522282125137487,-0.0021035735052057285,0.89522282125137487,-0.0021035735052057285,0.89522282125137487
0.0047999999999999996,-0.00010272218402947586,-0.042797934297986111,-0.0027473586146136248,0.89570918535320487,-0.0027473586146136248,0.89570918535320487,-0.0027473586146136248,0.89570918535320487
0.0053999999999999994,-0.00013000548140255835,-0.048146363051322069,-0.0034769157364621991,0.8961955759688518,-0.0034769157364621991,0.8961955759688518,-0.0034769157364621991,0.8961955759688518
0.0059999999999999993,-0.00016049775119294431,-0.053494500059110883,-0.0042922290792364861,0.89668200714294954,-0.0042922290792364861,0.89668200714294954,-0.0042922290792364861,0.89668200714294954
0.0065999999999999991,-0.00019419882029845923,-0.058842345330307598,-0.005193283054892959,0.89716849456944381,-0.005193283054892959,0.89716849456944381,-0.005193283054892959,0.89716849456944381
0.0071999999999999998,-0.00023110851053377224,-0.064189898871217538,-0.0061800620292694819,0.89765505559090819,-0.0061800620292694819,0.89765505559090819,-0.0061800620292694819,0.89765505559090819
0.0077999999999999996,-0.00027122664603086466,-0.069537160685048172,-0.0072525503873821021,0.89814170919794201,-0.0072525503873821021,0.89814170919794201,-0.0072525503873821021,0.89814170919794201
0.0083999999999999995,-0.00031455305445263491,-0.074884130768515522,-0.0084107325430530268,0.89862847602835139,-0.0084107325430530268,0.89862847602835139,-0.0084107325430530268,0.89862847602835139
0.0089999999999999993,-0.00036108755886171407,-0.080230809126414601,-0.009654592867885118,0.89911537836777811,-0.009654592867885118,0.89911537836777811,-0.009654592867885118,0.89911537836777811
0.0095999999999999992,-0.00041082998374185521,-0.085577195761044583,-0.010984115742952928,0.89960244014825186,-0.010984115742952928,0.89960244014825186,-0.010984115742952928,0.89960244014825186
0.010199999999999999,-0.000463780152604883,-0.090923290659891451,-0.012399285534465333,0.90008968694643698,-0.012399285534465333,0.90008968694643698,-0.012399285534465333,0.90008968694643698
0.010799999999999999,-0.00051993788938971925,-0.096269093816950577,-0.013900086608862119,0.90057714598501981,-0.013900086608862119,0.90057714598501981,-0.013900086608862119,0.90057714598501981
0.011399999999999999,-0.00057930301861849214,-0.10161460523510606,-0.015486503334307976,0.90106484613237292,-0.015486503334307976,0.90106484613237292,-0.015486503334307976,0.90106484613237292
0.011999999999999999,-0.00064187536447332303,-0.10695982491205992,-0.017158520069161534,0.90155281790065267,-0.017158520069161534,0.90155281790065267,-0.017158520069161534,0.90155281790065267
0.012599999999999998,-0.00070765475560401496,-0.11230475275585602,-0.018916121184742632,0.90204109343767414,-0.018916121184742632,0.90204109343767414,-0.018916121184742632,0.90204109343767414
0.013199999999999998,-0.00077664101686624484,-0.11764938875067932,-0.02075929102508272,0.90252970654122855,-0.02075929102508272,0.90252970654122855,-0.02075929102508272,0.90252970654122855
0.013799999999999998,-0.00084883397233551235,-0.12299373289637155,-0.022688013922070885,0.90301869265306856,-0.022688013922070885,0.90301869265306856,-0.022688013922070885,0.90301869265306856
0.0144,-0.00092423344708444661,-0.12833778517276392,-0.024702274202023734,0.90350808885511391,-0.024702274202023734,0.90350808885511391,-0.024702274202023734,0.90350808885511391
0.014999999999999999,-0.0010028392661856757,-0.13368154555968761,-0.026802056180092439,0.90399793387068961,-0.026802056180092439,0.90399793387068961,-0.026802056180092439,0.90399793387068961
0.015599999999999999,-0.0010846512547118285,-0.1390250140369737,-0.028987344159229551,0.90448826806393257,-0.028987344159229551,0.90448826806393257,-0.028987344159229551,0.90448826806393257
0.016199999999999999,-0.0011696692377355337,-0.14436819058445349,-0.03125812242911219,0.9049791334392232,-0.03125812242911219,0.9049791334392232,-0.03125812242911219,0.9049791334392232
0.016799999999999999,-0.0012578930403294203,-0.14971107518195806,-0.033614375265021409,0.90547057364060279,-0.033614375265021409,0.90547057364060279,-0.033614375265021409,0.90547057364060279
0.017399999999999999,-0.0013493224812115088,-0.15505366751559391,-0.036056086779046592,0.90596263392405518,-0.036056086779046592,0.90596263392405518,-0.036056086779046592,0.90596263392405518
0.017999999999999999,-0.0014439573889377857,-0.1603959677262011,-0.0385832412873863,0.90645536122599246,-0.0385832412873863,0.90645536122599246,-0.0385832412873863,0.90645536122599246
0.018599999999999998,-0.0015417975884273001,-0.16573797578651195,-0.041195823007010038,0.90694880410524625,-0.041195823007010038,0.90694880410524625,-0.041195823007010038,0.90694880410524625
0.019199999999999998,-0.0016428429043950257,-0.17107969165982612,-0.043893816130228525,0.90744301275710448,-0.043893816130228525,0.90744301275710448,-0.043893816130228525,0.90744301275710448
0.019799999999999998,-0.001747093161555938,-0.17642111530944304,-0.046677204827995936,0.90793803901359205,-0.046677204827995936,0.90793803901359205,-0.046677204827995936,0.90793803901359205
0.020399999999999998,-0.0018545481846250105,-0.18176224669866237,-0.049545973248528372,0.90843393634290415,-0.049545973248528372,0.90843393634290415,-0.049545973248528372,0.90843393634290415
0.020999999999999998,-0.0019652077983172184,-0.18710308579078369,-0.052500105515878713,0.90893075984880412,-0.052500105515878713,0.90893075984880412,-0.052500105515878713,0.90893075984880412
0.021599999999999998,-0.0020790718258719425,-0.19244363233390302,-0.055539585632546296,0.90942856625020241,-0.055539585632546296,0.90942856625020241,-0.055539585632546296,0.90942856625020241
0.022199999999999998,-0.0021961400841366821,-0.19778388514391199,-0.058664397139254129,0.90992741381426789,-0.058664397139254129,0.90992741381426789,-0.058664397139254129,0.90992741381426789
0.022799999999999997,-0.0023164124033997406,-0.20312384499693542,-0.061874524414619214,0.91042736262268065,-0.061874524414619214,0.91042736262268065,-0.061874524414619214,0.91042736262268065
0.023399999999999997,-0.0024398886079554632,-0.20846351179492739,-0.065169951424031036,0.91092847430976853,-0.065169951424031036,0.91092847430976853,-0.065169951424031036,0.91092847430976853
0.023999999999999997,-0.0025665685220981941,-0.21380288543984191,-0.068550662098325693,0.91143081214245569,-0.068550662098325693,0.91143081214245569,-0.068550662098325693,0.91143081214245569
0.024599999999999997,-0.002696451970122278,-0.2191419658336331,-0.072016640332101367,0.9119344410196728,-0.072016640332101367,0.9119344410196728,-0.072016640332101367,0.9119344410196728
0.025199999999999997,-0.0028295387763220587,-0.224480752878255,-0.07556786998199011,0.91243942747174955,-0.07556786998199011,0.91243942747174955,-0.07556786998199011,0.91243942747174955
0.025799999999999997,-0.0029658287649918817,-0.2298192464756616,-0.079204334864886761,0.9129458396598249,-0.079204334864886761,0.9129458396598249,-0.079204334864886761,0.9129458396598249
0.026399999999999996,-0.00310532176042609,-0.23515744652780704,-0.082926018756134423,0.91345374737525731,-0.082926018756134423,0.91345374737525731,-0.082926018756134423,0.91345374737525731
0.026999999999999996,-0.0032480175869190292,-0.24049535293664528,-0.086732905387666745,0.91396322203901192,-0.086732905387666745,0.91396322203901192,-0.086732905387666745,0.91396322203901192
0.027599999999999996,-0.0033939160687650439,-0.24583296560413051,-0.090624978446107229,0.91447433670106548,-0.090624978446107229,0.91447433670106548,-0.090624978446107229,0.91447433670106548
0.028199999999999996,-0.003543017030258477,-0.25117028443221667,-0.09460222157082504,0.91498716603980057,-0.09460222157082504,0.91498716603980057,-0.09460222157082504,0.91498716603980057
0.028799999999999999,-0.0036953202956936763,-0.25650730932285787,-0.098664618351948161,0.915501786361407,-0.098664618351948161,0.915501786361407,-0.098664618351948161,0.915501786361407
0.029399999999999999,-0.0038508256893649822,-0.26184404017800811,-0.10281215232833299,0.91601827559926896,-0.10281215232833299,0.91601827559926896,-0.10281215232833299,0.91601827559926896
0.029999999999999999,-0.0040095330355667414,-0.26718047689962149,-0.10704480698549128,0.91653671331336461,-0.10704480698549128,0.91653671331336461,-0.10704480698549128,0.91653671331336461
0.030599999999999999,-0.0041714421585932982,-0.27251661938965205,-0.11136256575347374,0.91705718068964792,-0.11136256575347374,0.91705718068964792,-0.11136256575347374,0.91705718068964792
0.031199999999999999,-0.0043365528512472485,-0.27785246529510632,-0.1157654104724935,0.91757976032414845,-0.1157654104724935,0.91757976032414845,-0.1157654104724935,0.91757976032414845
0.031799999999999995,-0.0045048649373069152,-0.28318801448098874,-0.12025332435762764,0.9181045366478866,-0.12025332435762764,0.9181045366478866,-0.12025332435762764,0.9181045366478866
0.032399999999999998,-0.0046763782608032611,-0.28852326826248215,-0.1248262915765895,0.91863159585500398,-0.1248262915765895,0.91863159585500398,-0.1248262915765895,0.91863159585500398
0.032999999999999995,-0.0048510926451883858,-0.29385822648123222,-0.12948429524460864,0.91916102562270652,-0.12948429524460864,0.91916102562270652,-0.12948429524460864,0.91916102562270652
0.033599999999999998,-0.0050290079139143993,-0.29919288897888507,-0.13422731840766547,0.91969291525099273,-0.13422731840766547,0.91969291525099273,-0.13422731840766547,0.91969291525099273
0.034199999999999994,-0.0052101238904333994,-0.3045272555970866,-0.1390553440401171,0.92022735566204084,-0.1390553440401171,0.92022735566204084,-0.1390553440401171,0.92022735566204084
0.034799999999999998,-0.005394440398197497,-0.30986132617748274,-0.14396835504228178,0.92076443939956398,-0.14396835504228178,0.92076443939956398,-0.14396835504228178,0.92076443939956398
0.035399999999999994,-0.0055819572606587908,-0.31519510056171951,-0.14896633423797967,0.92130426062818138,-0.14896633423797967,0.92130426062818138,-0.14896633423797967,0.92130426062818138
0.035999999999999997,-0.0057726743012693899,-0.32052857859144279,-0.1540492643720312,0.92184691513277528,-0.1540492643720312,0.92184691513277528,-0.1540492643720312,0.92184691513277528
0.036599999999999994,-0.0059665913434813938,-0.32586176010829848,-0.15921712810771257,0.92239250031787279,-0.15921712810771257,0.92239250031787279,-0.15921712810771257,0.92239250031787279
0.037199999999999997,-0.006163708210746909,-0.33119464495393275,-0.16446990802416867,0.92294111520697442,-0.16446990802416867,0.92294111520697442,-0.16446990802416867,0.92294111520697442
0.037799999999999993,-0.0063640247265180395,-0.33652723296999132,-0.16980758661378295,0.9234928604419288,-0.16980758661378295,0.9234928604419288,-0.16980758661378295,0.9234928604419288
0.038399999999999997,-0.0065675407142468901,-0.34185952399812031,-0.17523014627950506,0.92404783828227899,-0.17523014627950506,0.92404783828227899,-0.17523014627950506,0.92404783828227899
0.039,-0.0067742559973855664,-0.34719151787996555,-0.18073756933213544,0.92460615260461054,-0.18073756933213544,0.92460615260461054,-0.18073756933213544,0.92460615260461054
0.039599999999999996,-0.0069841703993861687,-0.352523214457173,-0.18632983798756769,0.92516790890189604,-0.18632983798756769,0.92516790890189604,-0.18632983798756769,0.92516790890189604
0.0402,-0.0071972837437008046,-0.35785461357138876,-0.19200693436398819,0.92573321428283073,-0.19200693436398819,0.92573321428283073,-0.19200693436398819,0.92573321428283073
0.040799999999999996,-0.0074135956943201242,-0.36318570463540262,-0.19776883149451741,0.92630217642489399,-0.19776883149451741,0.92630217642489399,-0.19776883149451741,0.92630217642489399
0.041399999999999999,-0.0076331062027151621,-0.36851649586336033,-0.20361551826271126,0.92687490649798754,-0.20361551826271126,0.92687490649798754,-0.20361551826271126,0.92687490649798754
0.041999999999999996,-0.0078558150919370642,-0.37384698707068509,-0.20954697638771441,0.92745151644881574,-0.20954697638771441,0.92745151644881574,-0.20954697638771441,0.92745151644881574
0.042599999999999999,-0.0080817221836264989,-0.37917717798055384,-0.21556318739582347,0.92803211982761802,-0.21556318739582347,0.92803211982761802,-0.21556318739582347,0.92803211982761802
0.043199999999999995,-0.0083108272994241207,-0.38450706831614329,-0.22166413269596508,0.92861683179672916,-0.22166413269596508,0.92861683179672916,-0.22166413269596508,0.92861683179672916
0.043799999999999999,-0.0085431302609706005,-0.38983665780063026,-0.22784979357664287,0.92920576912986164,-0.22784979357664287,0.92920576912986164,-0.22784979357664287,0.92920576912986164
0.044399999999999995,-0.0087786308899065902,-0.39516594615719142,-0.2341201512028403,0.92979905021141818,-0.2341201512028403,0.92979905021141818,-0.2341201512028403,0.92979905021141818
0.044999999999999998,-0.0090173290078727642,-0.40049493310900369,-0.24047518661288314,0.93039679503578832,-0.24047518661288314,0.93039679503578832,-0.24047518661288314,0.93039679503578832
0.045599999999999995,-0.0092592244365097727,-0.40582361837924369,-0.24691488071525763,0.93099912520663253,-0.24691488071525763,0.93099912520663253,-0.24691488071525763,0.93099912520663253
0.046199999999999998,-0.0095043169974582883,-0.41115200169108829,-0.2534392142853884,0.93160616393618767,-0.2534392142853884,0.93160616393618767,-0.2534392142853884,0.93160616393618767
0.046799999999999994,-0.009752606512358963,-0.4164800827677142,-0.26004816796237207,0.93221803604453335,-0.26004816796237207,0.93221803604453335,-0.26004816796237207,0.93221803604453335
0.047399999999999998,-0.010004092802852471,-0.42180786133229831,-0.26674172224567089,0.93283486795887249,-0.26674172224567089,0.93283486795887249,-0.26674172224567089,0.93283486795887249
0.047999999999999994,-0.010258775690579463,-0.42713533710801715,-0.27351985749176189,0.93345678771280838,-0.27351985749176189,0.93345678771280838,-0.27351985749176189,0.93345678771280838
0.048599999999999997,-0.010516654997180609,-0.43246250981804779,-0.28038255391074629,0.93408392494560921,-0.28038255391074629,0.93408392494560921,-0.28038255391074629,0.93408392494560921
0.049199999999999994,-0.010777730544296565,-0.43778937918556665,-0.28732979156291416,0.93471641090147983,-0.28732979156291416,0.93471641090147983,-0.28732979156291416,0.93471641090147983
0.049799999999999997,-0.011042002039888078,-0.44311593914061798,-0.29436154421859384,0.93535437780083264,-0.29436154421859384,0.93535437780083264,-0.29436154421859384,0.93535437780083264
0.050399999999999993,-0.011309469211788631,-0.44844218462596142,-0.30147778632893829,0.93599795956526322,-0.30147778632893829,0.93599795956526322,-0.30147778632893829,0.93599795956526322
0.050999999999999997,-0.01158013203199126,-0.45376812302673603,-0.30867850542617553,0.93664729307044503,-0.30867850542617553,0.93664729307044503,-0.30867850542617553,0.93664729307044503
0.051599999999999993,-0.011853990318773853,-0.4590937538947516,-0.31596368065658587,0.93730251594847402,-0.31596368065658587,0.93730251594847402,-0.31596368065658587,0.93730251594847402
0.052199999999999996,-0.012131043890414311,-0.46441907678181821,-0.32333329099159092,0.93796376743199872,-0.32333329099159092,0.93796376743199872,-0.32333329099159092,0.93796376743199872
0.052799999999999993,-0.012411292565190519,-0.46974409123974553,-0.33078731522406946,0.93863118835343506,-0.33078731522406946,0.93863118835343506,-0.33078731522406946,0.93863118835343506
0.053399999999999996,-0.012694736161380374,-0.47506879682034364,-0.33832573196463284,0.93930492114417596,-0.33832573196463284,0.93930492114417596,-0.33832573196463284,0.93930492114417596
0.053999999999999992,-0.012981374497261767,-0.48039319307542244,-0.34594851963785778,0.93998510983376171,-0.34594851963785778,0.93998510983376171,-0.34594851963785778,0.93998510983376171
0.054599999999999996,-0.013271207391112592,-0.48571727955679184,-0.35365565647847752,0.94067190004908952,-0.35365565647847752,0.94067190004908952,-0.35365565647847752,0.94067190004908952
0.055199999999999992,-0.013564234661210737,-0.49104105581626178,-0.36144712052753153,0.94136543901357328,-0.36144712052753153,0.94136543901357328,-0.36144712052753153,0.94136543901357328
0.055799999999999995,-0.013860456125834102,-0.49636452140564219,-0.36932288962847359,0.94206587554631938,-0.36932288962847359,0.94206587554631938,-0.36932288962847359,0.94206587554631938
0.056399999999999992,-0.014159871603260573,-0.5016876758767429,-0.37728294142323759,0.94277336006130419,-0.37728294142323759,0.94277336006130419,-0.37728294142323759,0.94277336006130419
0.056999999999999995,-0.014462480911768051,-0.50701051878137393,-0.38532725334826279,0.94348804456651258,-0.38532725334826279,0.94348804456651258,-0.38532725334826279,0.94348804456651258
0.057599999999999998,-0.014768283869634425,-0.51233304967134508,-0.39345580263047614,0.94421008266310658,-0.39345580263047614,0.94421008266310658,-0.39345580263047614,0.94421008266310658
0.058199999999999995,-0.015077280295137585,-0.5176552680984664,-0.40166856628323477,0.94493962954454425,-0.40166856628323477,0.94493962954454425,-0.40166856628323477,0.94493962954454425
0.058799999999999998,-0.015389470006555422,-0.52297717361454787,-0.40996552110222562,0.94567684199574131,-0.40996552110222562,0.94567684199574131,-0.40996552110222562,0.94567684199574131
0.059399999999999994,-0.015704852455998203,-0.52829875073794952,-0.41834662455568927,0.94642187657174581,-0.41834662455568927,0.94642187657174581,-0.41834662455568927,0.94642187657174581
0.059999999999999998,-0.016023427666810332,-0.53362000743973259,-0.42681186330300364,0.94717489422854761,-0.42681186330300364,0.94717489422854761,-0.42681186330300364,0.94717489422854761
0.060599999999999994,-0.016345195528744749,-0.53894094620619992,-0.43536121704336594,0.94793605686371407,-0.43536121704336594,0.94793605686371407,-0.43536121704336594,0.94793605686371407
0.061199999999999997,-0.016670155854928915,-0.5442615663777044,-0.44399466126776915,0.94870552758323079,-0.44399466126776915,0.94870552758323079,-0.44399466126776915,0.94870552758323079
0.061799999999999994,-0.016998308458490298,-0.5495818672945989,-0.45271217121949925,0.94948347107908759,-0.45271217121949925,0.94948347107908759,-0.45271217121949925,0.94948347107908759
0.062399999999999997,-0.01732965315255636,-0.55490184829723688,-0.46151372188979178,0.95027005362831929,-0.46151372188979178,0.95027005362831929,-0.46151372188979178,0.95027005362831929
